Time(ms),X(mm),Y(mm),Z(mm),Roll(deg),Pitch(deg),Yaw(deg)
4192127,-2.382,-556.178,571.628,69.952,-10.095,-96.502
4192248,-2.382,-556.178,571.628,69.952,-10.095,-96.502
4192368,-2.382,-556.178,571.628,69.952,-10.095,-96.502
4192489,-2.382,-556.178,571.628,69.952,-10.095,-96.502
4192609,-2.382,-556.178,571.628,69.952,-10.095,-96.502
4192730,-2.382,-556.178,571.628,69.952,-10.095,-96.502
4192850,-2.382,-556.178,571.628,69.952,-10.095,-96.502
4192971,-2.382,-556.178,571.628,69.952,-10.095,-96.502
4193091,-2.382,-556.178,571.628,69.952,-10.095,-96.502
4193212,-2.382,-556.178,571.628,69.952,-10.095,-96.502
4193332,-2.386,-556.176,571.676,69.952,-10.098,-96.502
4193453,-2.396,-556.174,571.875,69.957,-10.121,-96.504
4193573,-2.762,-554.828,576.142,70.134,-10.562,-96.535
4193693,-3.893,-550.648,586.68,70.575,-11.648,-96.62
4193814,-4.929,-546.82,594.657,70.911,-12.469,-96.69
4193934,-5.454,-544.879,598.346,71.067,-12.849,-96.725
4194055,-5.966,-542.976,602.949,71.266,-13.327,-96.77
4194175,-6.789,-539.762,611.486,71.641,-14.218,-96.854
4194296,-6.321,-535.689,621.34,72.382,-15.154,-96.892
4194416,-1.403,-531.482,629.368,73.571,-15.733,-96.588
4194537,4.274,-525.425,640.546,74.691,-16.712,-96.111
4194657,9.16,-517.774,654.122,75.464,-18.104,-95.555
4194778,13.979,-510.551,666.42,76.176,-19.377,-94.994
4194898,18.178,-505.054,677.034,76.739,-20.503,-94.512
4195019,21.379,-500.638,686.593,77.213,-21.534,-94.152
4195139,22.934,-496.744,695.128,77.644,-22.457,-93.983
4195259,23.787,-492.531,703.432,78.072,-23.361,-93.881
4195380,24.57,-487.704,711.507,78.497,-24.245,-93.762
4195500,25.353,-482.251,720.211,78.966,-25.206,-93.634
4195621,25.186,-474.733,731.961,79.616,-26.511,-93.607
4195741,24.759,-467.647,742.572,80.224,-27.7,-93.613
4195862,24.762,-462.508,751.16,80.727,-28.663,-93.611
4195982,23.869,-457.828,759.341,81.216,-29.583,-93.736
4196103,23.134,-451.607,768.68,81.795,-30.646,-93.815
4196223,23.46,-443.94,778.945,82.456,-31.83,-93.734
4196344,25.307,-436.169,788.914,83.123,-32.991,-93.451
4196464,28.391,-429.391,798.241,83.765,-34.076,-93.036
4196585,32.705,-423.009,807.007,84.387,-35.1,-92.46
4196705,36.899,-416.916,815.36,85,-36.08,-91.896
4196826,42.427,-411.435,822.369,85.532,-36.908,-91.132
4196946,48.748,-407.085,828.182,85.98,-37.59,-90.273
4197067,55.234,-402.45,833.487,86.402,-38.221,-89.346
4197187,61.532,-396.718,838.726,86.84,-38.863,-88.359
4197308,66.514,-388.994,844.836,87.38,-39.635,-87.432
4197428,71.545,-380.814,850.828,87.933,-40.407,-86.434
4197549,76.334,-371.864,856.016,88.45,-41.111,-85.335
4197669,79.181,-360.823,861.653,89.061,-41.92,-84.311
4197790,79.956,-347.257,868.417,89.848,-42.928,-83.358
4197910,76.853,-331.775,876.186,90.832,-44.137,-82.779
4198031,72.41,-317.076,883.32,91.827,-45.303,-82.388
4198151,73.407,-309.687,886.334,92.444,-45.759,-81.675
4198272,82.564,-306.64,885.83,93.708,-45.226,-80.29
4198392,96.479,-304.953,883.711,95.288,-44.212,-78.422
4198512,108.911,-300.687,882.746,96.891,-43.425,-76.527
4198633,118.804,-295.977,882.634,97.786,-43.072,-74.766
4198753,126.414,-290.354,883.537,98.085,-43.162,-73.061
4198874,129.628,-281.288,886.563,98.53,-43.682,-71.551
4198994,131.672,-270.606,890.267,99.1,-44.337,-69.941
4199115,133.551,-259.548,893.954,99.702,-45.011,-68.2
4199236,138.827,-251.374,895.83,100.024,-45.363,-66.258
4199356,146.893,-246.131,896.036,100.06,-45.402,-64.31
4199477,156.247,-242.395,895.345,99.94,-45.271,-62.432
4199597,166.731,-238.958,894.159,99.737,-45.049,-60.495
4199718,178.676,-234.841,892.667,99.488,-44.773,-58.33
4199838,189.539,-229.935,891.485,99.295,-44.558,-56.243
4199958,197.916,-224.103,891.097,99.234,-44.491,-54.347
4200079,204.541,-217.948,893.24,99.876,-45.208,-53.057
4200200,210.717,-211.246,899.457,101.833,-47.267,-52.673
4200320,216.312,-204.404,905.634,103.943,-49.286,-52.479
4200440,221.804,-197.926,907.15,104.481,-49.77,-51.221
4200561,227.466,-191.388,907.153,104.483,-49.771,-49.555
4200682,233.374,-184.138,907.152,104.483,-49.771,-47.752
4200802,239.484,-176.11,907.154,104.484,-49.771,-45.808
4200923,245.254,-167.983,907.152,104.484,-49.771,-43.886
4201043,250.711,-159.735,907.141,104.486,-49.768,-41.981
4201164,256.054,-151.02,907.134,104.494,-49.763,-40.012
4201284,260.911,-142.464,907.129,104.497,-49.761,-38.116
4201405,265.185,-134.339,907.115,104.504,-49.754,-36.347
4201525,269.105,-126.187,907.133,104.511,-49.756,-34.602
4201646,272.63,-118.032,907.045,104.759,-49.637,-32.937
4201766,276.12,-107.41,906.641,106.107,-48.997,-31.035
4201887,278.793,-96.863,906.205,107.866,-48.163,-29.242
4202007,280.577,-88.779,905.95,109.112,-47.571,-27.839
4202127,282.247,-81.755,905.818,109.778,-47.251,-26.536
4202248,284.614,-72.981,905.603,110.218,-47.006,-24.841
4202368,286.908,-62.751,905.567,110.4,-46.916,-22.821
4202489,288.969,-52.466,905.56,110.395,-46.915,-20.772
4202609,290.635,-42.278,905.558,110.394,-46.914,-18.758
4202730,291.875,-32.81,905.549,110.392,-46.913,-16.895
4202850,292.816,-23.359,905.534,110.389,-46.91,-15.044
4202970,293.411,-14.065,905.531,110.389,-46.91,-13.227
4203091,293.706,-5.175,905.527,110.388,-46.909,-11.492
4203211,294.005,3.547,905.404,110.366,-46.888,-9.799
4203332,294.02,11.66,905.303,110.349,-46.871,-8.227
4203452,293.688,18.9,905.271,110.345,-46.866,-6.816
4203573,293.276,24.581,905.263,110.344,-46.865,-5.707
4203693,292.994,28.65,905.228,110.337,-46.859,-4.917
4203814,292.952,31.54,905.126,110.319,-46.841,-4.366
4203934,295.995,35.173,903.773,110.086,-46.609,-3.861
4204054,302.184,40.167,901.009,109.616,-46.136,-3.289
4204175,305.607,43.416,899.41,109.353,-45.867,-2.894
4204295,303.493,43.303,900.312,109.499,-46.017,-2.796
4204416,295.512,38.725,903.808,110.09,-46.614,-3.172
4204536,286.24,33.042,907.724,110.794,-47.304,-3.69
4204656,278.012,28.014,911.049,111.431,-47.91,-4.16
4204777,273.901,25.501,912.658,111.754,-48.21,-4.401
4204897,272.483,24.635,913.205,111.866,-48.313,-4.484
4205018,272.483,24.635,913.205,111.866,-48.313,-4.484
4205138,272.483,24.635,913.205,111.866,-48.313,-4.484
4205259,272.483,24.635,913.205,111.866,-48.313,-4.484
4205379,272.483,24.635,913.205,111.866,-48.313,-4.484
4205499,272.483,24.635,913.205,111.866,-48.313,-4.484
4205620,272.483,24.635,913.205,111.866,-48.313,-4.484
4205740,272.483,24.635,913.205,111.866,-48.313,-4.484
4205861,272.483,24.635,913.205,111.866,-48.313,-4.484
4205981,272.483,24.635,913.205,111.866,-48.313,-4.484
4206102,272.483,24.635,913.205,111.866,-48.313,-4.484
4206222,272.483,24.635,913.205,111.866,-48.313,-4.484
4206343,272.483,24.635,913.205,111.866,-48.313,-4.484
4206463,272.483,24.635,913.205,111.866,-48.313,-4.484
4206584,272.483,24.635,913.205,111.866,-48.313,-4.484
4206704,272.483,24.635,913.205,111.866,-48.313,-4.484
4206824,272.483,24.635,913.205,111.866,-48.313,-4.484
4206945,272.483,24.635,913.205,111.866,-48.313,-4.484
4207065,272.483,24.635,913.205,111.866,-48.313,-4.484
4207186,272.446,24.764,913.277,111.949,-48.315,-4.488
4207306,270.822,26.838,915.678,113.996,-48.579,-4.796
4207427,267.984,32.587,920.005,118.378,-48.773,-5.054
4207547,270.01,42.082,920.468,121.796,-47.821,-4.193
4207668,273.045,50.86,918.218,123.751,-46.195,-2.748
4207788,274.825,55.611,916.961,124.78,-45.316,-1.967
4207908,277.415,57.886,915.851,124.838,-45.002,-1.722
4208029,278.161,58.752,917.557,125.587,-45.589,-2.085
4208149,278.365,59.319,921.651,127.161,-46.989,-3.037
4208270,273.999,56.66,927.674,129.065,-48.809,-4.447
4208390,262.665,49.743,934.947,131.125,-50.605,-6.016
4208511,244.516,38.654,943.046,133.367,-52.374,-7.769
4208631,229.769,29.649,949.739,135.612,-53.976,-9.564
4208751,223.079,25.566,952.242,136.481,-54.552,-10.267
4208872,220.969,24.348,952.853,136.695,-54.668,-10.407
4208992,220.859,24.578,952.757,136.727,-54.597,-10.294
4209112,220.255,25.81,952.002,136.738,-54.099,-9.552
4209233,218.435,31.222,949.527,137.196,-52.259,-6.884
4209353,217.437,42.632,946.377,138.52,-49.623,-2.794
4209474,215.917,57.897,943.623,140.745,-46.714,2.059
4209594,217.974,73.676,940.663,142.295,-44.402,6.134
4209715,220.647,85.091,938.353,142.589,-43.326,8.575
4209835,221.582,93.744,936.683,142.334,-42.978,10.325
4209956,222.263,103.985,932.228,141.874,-42.345,12.472
4210076,219.514,112.787,928.155,141.545,-41.866,14.73
4210197,216.038,121.645,924.553,141.262,-41.448,17.038
4210317,210.295,128.362,923.322,141.213,-41.375,19.18
4210438,201.769,131.278,925.097,141.475,-41.765,21.003
4210558,195.376,133.13,926.455,141.68,-42.064,22.363
4210678,191.474,134.398,927.223,141.799,-42.237,23.242
4210799,189.894,136.593,927.229,141.799,-42.238,23.905
4210919,189.18,137.972,927.158,141.789,-42.222,24.273
4211040,189.18,137.972,927.158,141.789,-42.222,24.273
4211160,189.18,137.972,927.158,141.789,-42.222,24.273
4211281,189.18,137.972,927.158,141.789,-42.222,24.273
4211401,189.18,137.972,927.158,141.789,-42.222,24.273
4211522,189.18,137.972,927.158,141.789,-42.222,24.273
4211642,189.18,137.972,927.158,141.789,-42.222,24.273
4211763,189.18,137.972,927.158,141.789,-42.222,24.273
4211883,189.18,137.972,927.158,141.789,-42.222,24.273
4212004,189.18,137.972,927.158,141.789,-42.222,24.273
4212124,189.18,137.972,927.158,141.789,-42.222,24.273
4212244,189.18,137.972,927.158,141.789,-42.222,24.273
4212365,189.18,137.972,927.158,141.789,-42.222,24.273
4212486,189.18,137.972,927.158,141.789,-42.222,24.273
4212606,189.18,137.972,927.158,141.789,-42.222,24.273
4212726,189.18,137.972,927.158,141.789,-42.222,24.273
4212847,189.18,137.972,927.158,141.789,-42.222,24.273
4212967,189.18,137.972,927.158,141.789,-42.222,24.273
4213088,189.18,137.972,927.158,141.789,-42.222,24.273
4213208,189.18,137.972,927.158,141.789,-42.222,24.273
4213329,189.18,137.972,927.158,141.789,-42.222,24.273
4213449,189.18,137.972,927.158,141.789,-42.222,24.273
4213570,189.18,137.972,927.158,141.789,-42.222,24.273
4213690,189.18,137.972,927.158,141.789,-42.222,24.273
4213811,189.18,137.972,927.158,141.789,-42.222,24.273
4213931,189.18,137.972,927.158,141.789,-42.222,24.273
4214051,189.18,137.972,927.158,141.789,-42.222,24.273
4214172,189.18,137.972,927.158,141.789,-42.222,24.273
4214292,189.18,137.972,927.158,141.789,-42.222,24.273
4214413,189.18,137.972,927.158,141.789,-42.222,24.273
4214533,189.18,137.972,927.158,141.789,-42.222,24.273
4214654,189.18,137.972,927.158,141.789,-42.222,24.273
4214774,189.18,137.972,927.158,141.789,-42.222,24.273
4214895,189.18,137.972,927.158,141.789,-42.222,24.273
4215015,189.18,137.972,927.158,141.789,-42.222,24.273
4215135,189.18,137.972,927.158,141.789,-42.222,24.273
4215256,189.18,137.972,927.158,141.789,-42.222,24.273
4215376,189.18,137.972,927.158,141.789,-42.222,24.273
4215497,189.18,137.972,927.158,141.789,-42.222,24.273
4215617,189.103,137.884,927.264,141.813,-42.252,24.26
4215738,188.42,137.07,928.499,142.01,-42.52,24.141
4215858,185.441,133.388,933.216,142.472,-43.173,23.834
4215978,181.615,128.613,939.083,143.055,-43.977,23.433
4216099,180.355,127.341,939.84,142.777,-43.591,23.676
4216220,180.085,130.7,935.323,141.523,-41.79,25.143
4216340,179.774,137.998,931.219,140.542,-40.297,27.029
4216460,179.71,148.731,930.744,140.355,-40.002,28.793
4216581,179.975,162.948,930.993,140.154,-39.686,30.856
4216701,176.801,174.411,934.013,140.241,-39.825,32.917
4216822,170.849,180.351,939.048,140.59,-40.373,34.625
4216942,165.601,183.831,943.309,140.778,-40.684,35.99
4217063,162.533,188.498,944.364,140.306,-39.945,37.451
4217183,159.815,194.134,942.635,139.286,-38.299,39.25
4217304,157.199,199.962,938.762,137.954,-36.041,41.168
4217424,155.758,204.938,935.227,136.474,-34.077,42.585
4217544,156.356,211.527,932.482,134.721,-33.02,43.456
4217665,158.567,219.226,929.625,132.568,-32.448,43.989
4217785,160.233,228.418,925.919,130.269,-31.832,44.764
4217906,160.592,235.642,922.188,127.946,-31.059,45.672
4218026,160.634,241.771,917.767,125.283,-29.885,46.684
4218147,162.051,248.778,912.091,122.153,-28.544,47.583
4218267,164.284,256.072,906.221,118.756,-27.44,48.358
4218388,165.293,260.947,900.945,115.348,-26.515,49.233
4218508,164.718,262.141,896.035,112.039,-25.3,50.268
4218629,164.088,261.607,889.612,108.508,-23.355,51.384
4218749,163.683,261.309,882.219,104.996,-20.91,52.503
4218869,161.351,264.014,876.557,103.123,-18.649,53.643
4218990,159.09,270.218,872.716,102.56,-17.457,54.491
4219110,158.428,277.487,869.89,102.316,-16.936,54.953
4219231,158.469,282.765,866.91,102.005,-16.268,55.218
4219351,158.614,285.399,864.77,101.758,-15.715,55.349
4219471,158.614,285.399,864.77,101.758,-15.715,55.349
4219592,159.21,288.692,861.2,101.308,-14.729,55.47
4219712,160.182,294.981,857.038,100.991,-13.752,55.582
4219833,160.724,299.631,854.886,101.001,-13.324,55.635
4219953,160.066,300.963,854.38,101.436,-13.024,55.686
4220073,160.661,304.924,850.925,101.128,-12.139,55.775
4220194,161.487,310.092,843.549,100.194,-10.024,55.975
4220314,161.732,312.893,841.763,100.031,-9.658,56.049
4220435,163.188,315.469,835.364,98.66,-7.916,56.138
4220555,167.14,322.626,817.691,94.908,-3.046,56.282
4220676,171.537,332.279,806.3,92.269,-0.741,56.282
4220796,175.699,340.111,808.761,91.639,-3.291,56.237
4220917,180.925,347.319,820.228,91.71,-9.172,55.988
4221037,185.615,350.249,827.386,90.736,-12.947,55.734
4221158,186.805,345.921,827.727,89.284,-12.543,55.815
4221278,185.003,335.067,827.132,88.038,-9.998,56.029
4221399,183.33,322.827,831.724,87.182,-8.891,56.116
4221519,181.993,313.138,843.997,87.697,-10.73,55.99
4221639,180.632,305.517,853.826,88.362,-12.297,55.852
4221760,179.671,300.348,860.188,88.828,-13.328,55.749
4221880,179.201,297.829,863.154,89.05,-13.815,55.697
4222001,179.08,297.176,863.876,89.104,-13.935,55.684
4222121,179.082,297.189,863.862,89.103,-13.932,55.684
4222242,179.082,297.189,863.862,89.103,-13.932,55.684
4222362,179.082,297.189,863.862,89.103,-13.932,55.684
4222482,179.082,297.189,863.862,89.103,-13.932,55.684
4222603,179.082,297.189,863.862,89.103,-13.932,55.684
4222723,179.082,297.189,863.862,89.103,-13.932,55.684
4222844,179.082,297.189,863.862,89.103,-13.932,55.684
4222964,179.082,297.189,863.862,89.103,-13.932,55.684
4223085,179.082,297.189,863.862,89.103,-13.932,55.684
4223205,179.082,297.189,863.862,89.103,-13.932,55.684
4223326,179.082,297.189,863.862,89.103,-13.932,55.684
4223446,179.082,297.189,863.862,89.103,-13.932,55.684
4223567,179.082,297.189,863.862,89.103,-13.932,55.684
4223687,179.082,297.189,863.862,89.103,-13.932,55.684
4223808,179.082,297.189,863.862,89.103,-13.932,55.684
4223928,179.082,297.189,863.862,89.103,-13.932,55.684
4224049,179.082,297.189,863.862,89.103,-13.932,55.684
4224169,179.082,297.189,863.862,89.103,-13.932,55.684
4224289,179.082,297.189,863.862,89.103,-13.932,55.684
4224410,179.082,297.189,863.862,89.103,-13.932,55.684
