Time(ms),X(mm),Y(mm),Z(mm),Roll(deg),Pitch(deg),Yaw(deg)
3934463,581.237,18.943,713.499,95.533,1.899,106.175
3934583,581.237,18.943,713.499,95.533,1.899,106.175
3934704,580.977,18.86,713.297,95.663,1.892,106.185
3934824,580.793,18.816,713.132,95.761,1.887,106.188
3934945,580.783,18.812,713.184,95.749,1.889,106.188
3935065,580.734,18.738,713.293,95.733,1.89,106.182
3935186,579.015,18.218,715.158,95.543,1.901,106.164
3935306,571.606,16.47,723.04,94.712,1.944,106.136
3935427,561.075,13.996,734.749,93.261,2.018,106.087
3935547,554.189,12.319,741.634,92.505,2.056,106.054
3935668,552.019,10.877,743.794,92.289,2.234,105.987
3935788,547.014,7.013,749.052,91.773,3.235,105.889
3935908,541.584,4.374,756.2,90.658,4.126,105.84
3936029,536.844,3.193,763.961,89.02,4.253,105.723
3936149,533.768,2.495,769.261,87.844,4.298,105.637
3936270,529.086,1.407,775.729,86.579,4.357,105.543
3936390,524.043,0.235,782.721,85.178,4.419,105.437
3936511,517.537,-1.28,789.587,84.073,4.468,105.352
3936631,511.256,-2.747,795.675,83.156,4.511,105.281
3936752,504.753,-4.274,801.424,82.362,4.552,105.217
3936872,499.439,-6.065,805.928,81.801,4.893,105.125
3936993,495.898,-8.785,809.127,81.479,5.993,104.93
3937113,492.5,-12.582,812.503,81.168,7.729,104.621
3937233,487.846,-15.545,816.519,80.739,8.823,104.381
3937354,482.268,-17.059,820.689,80.23,8.96,104.28
3937474,474.942,-18.76,825.97,79.567,8.975,104.177
3937595,468.566,-20.24,830.461,78.994,8.985,104.087
3937715,463.248,-21.474,834.141,78.517,8.994,104.013
3937836,458.629,-22.546,837.629,77.979,9.003,103.929
3937956,456.174,-23.252,841.969,76.785,9.099,103.725
3938076,454.564,-24.824,847.22,75.209,9.794,103.296
3938197,452.248,-27.361,852.153,73.919,10.926,102.748
3938317,448.467,-30.074,856.548,73.022,11.952,102.259
3938438,442.648,-33.142,861.589,72.157,12.905,101.767
3938558,435.487,-35.91,867.345,71.128,13.501,101.324
3938679,428.609,-38.092,872.67,70.133,13.799,100.973
3938799,421.979,-40.081,877.164,69.372,14.022,100.697
3938920,416.681,-41.596,880.296,68.912,14.162,100.524
3939040,411.645,-43.018,883.215,68.477,14.284,100.362
3939160,404.924,-45.247,887.135,67.884,14.626,100.066
3939281,397.693,-47.766,891.311,67.239,15.056,99.709
3939401,390.404,-50.471,895.493,66.577,15.577,99.296
3939522,382.466,-53.478,900.519,65.729,16.162,98.783
3939642,374.551,-56.097,908.007,64.299,16.482,98.183
3939763,366.489,-58.228,916.442,62.595,16.477,97.629
3939883,359.328,-60.141,924.411,60.906,16.45,97.079
3940003,354.009,-62.086,930.543,59.555,16.684,96.483
3940124,349.841,-64.449,934.997,58.568,17.304,95.765
3940244,345.304,-67.642,937.616,58.276,18.39,95.006
3940365,341.325,-70.488,936.667,59.299,19.549,94.739
3940485,337.299,-73.242,934.148,60.933,20.574,94.792
3940606,331.486,-77.98,934.907,61.349,21.149,94.216
3940726,326.518,-82.24,937.895,60.635,21.111,93.362
3940847,320.709,-87.184,941.472,59.744,21.182,92.298
3940967,316.241,-92.616,944.323,59.018,21.788,91.009
3941088,312.639,-98.96,946.796,58.368,22.95,89.38
3941208,307.387,-105.882,950.204,57.447,24.082,87.53
3941329,303.113,-110.108,952.435,56.839,24.301,86.494
3941449,300.126,-112.956,953.724,56.487,24.229,85.867
3941569,298.142,-115.918,954.293,56.33,24.197,85.259
3941690,295.834,-120.044,954.756,56.198,24.171,84.427
3941810,292.597,-124.946,955.663,55.926,24.115,83.389
3941931,288.791,-129.788,958.168,55.013,23.928,82.097
3942051,284.847,-134.419,961.919,53.572,23.62,80.621
3942172,280.7,-139.377,963.894,52.882,23.467,79.365
3942292,276.764,-144.295,964.734,52.646,23.414,78.275
3942413,273.701,-149.126,965.016,52.567,23.396,77.241
3942533,271.118,-153.805,965.005,52.57,23.396,76.258
3942654,267.833,-159.457,965.006,52.57,23.397,75.056
3942774,264.346,-165.173,965.006,52.57,23.397,73.825
3942894,260.751,-170.787,965.007,52.57,23.397,72.6
3943015,257.262,-175.999,965.009,52.569,23.396,71.447
3943135,254.046,-180.574,965.025,52.563,23.395,70.419
3943256,251.103,-184.551,965.113,52.53,23.388,69.502
3943376,248.31,-188.345,966.429,51.963,23.259,68.408
3943497,244.951,-192.302,969.518,50.659,22.956,66.968
3943617,241.434,-196.623,972.326,49.462,22.672,65.481
3943738,237.814,-200.982,973.113,49.127,22.602,64.306
3943858,234.364,-204.992,973.111,49.128,22.603,63.332
3943979,230.633,-208.95,973.171,49.114,22.6,62.343
3944099,224.821,-212.234,973.953,48.94,22.556,61.319
3944219,215.785,-213.841,975.987,48.481,22.438,60.341
3944340,207.653,-215.291,977.718,48.082,22.335,59.429
3944460,203.428,-218.595,977.901,48.041,22.335,58.444
3944581,200.286,-224.307,977.304,48.158,22.565,56.991
3944701,197.196,-232.009,976.292,48.342,23.051,55.07
3944822,192.329,-239.884,975.468,48.492,23.417,53.034
3944942,186.638,-247.012,974.691,48.663,23.5,51.207
3945063,181.492,-253.139,973.965,48.826,23.54,49.636
3945183,175.73,-258.105,973.668,48.892,23.557,48.189
3945304,169.789,-262.153,973.632,48.9,23.56,46.865
3945424,164.175,-265.551,973.682,48.889,23.557,45.67
3945545,158.303,-269.016,973.705,48.884,23.555,44.424
3945665,151.27,-273.015,973.712,48.883,23.556,42.94
3945785,142.923,-277.496,973.702,48.886,23.556,41.2
3945906,134.463,-281.797,973.661,48.896,23.559,39.452
3946026,126.947,-285.341,973.615,48.909,23.56,37.926
3946147,119.745,-288.438,973.61,48.911,23.561,36.488
3946267,112.287,-291.422,973.596,48.917,23.562,35.017
3946388,104.219,-294.404,973.594,48.918,23.563,33.439
3946508,95.881,-297.331,973.552,48.928,23.565,31.812
3946629,88.094,-300.007,973.444,48.953,23.572,30.285
3946749,80.984,-302.121,973.399,48.963,23.574,28.918
3946870,74.457,-303.798,973.398,48.963,23.574,27.683
3946990,67.854,-305.344,973.397,48.963,23.574,26.441
3947110,61.622,-306.674,973.391,48.965,23.574,25.273
3947231,55.641,-307.816,973.39,48.965,23.574,24.158
3947351,49.745,-308.823,973.388,48.966,23.575,23.063
3947472,43.609,-309.749,973.385,48.967,23.575,21.926
3947592,37.264,-310.577,973.383,48.968,23.575,20.755
3947713,30.984,-311.266,973.379,48.97,23.575,19.598
3947833,24.847,-311.739,973.359,48.985,23.579,18.485
3947953,18.587,-311.338,972.171,49.564,23.73,17.665
3948074,10.648,-309.235,970.117,50.648,24.004,16.926
3948194,2.658,-307.964,967.113,52.06,24.349,16.184
3948315,-5.085,-307.946,965.096,52.933,24.555,15.103
3948435,-13.958,-307.691,964.598,53.147,24.605,13.539
3948556,-23.967,-307.077,964.603,53.145,24.604,11.672
3948676,-33.599,-306.425,964.506,53.167,24.61,9.859
3948797,-41.937,-305.395,964.506,53.167,24.61,8.298
3948917,-49.545,-304.158,964.542,53.159,24.608,6.872
3949038,-56.007,-302.751,964.65,53.134,24.602,5.663
3949158,-63.075,-301.358,964.651,53.134,24.602,4.322
3949279,-70.833,-299.629,964.651,53.134,24.602,2.843
3949399,-78.92,-297.661,964.628,53.139,24.604,1.29
3949519,-86.39,-295.647,964.603,53.145,24.604,-0.154
3949640,-92.703,-293.797,964.577,53.151,24.605,-1.382
3949760,-98.131,-292.032,964.576,53.151,24.605,-2.444
3949881,-102.866,-290.398,964.576,53.151,24.605,-3.375
3950001,-107.593,-288.679,964.576,53.151,24.605,-4.311
3950122,-112.336,-286.867,964.576,53.151,24.605,-5.255
3950242,-117.186,-284.92,964.576,53.151,24.605,-6.227
3950363,-121.633,-283.062,964.572,53.152,24.605,-7.124
3950483,-125.876,-281.229,964.562,53.155,24.606,-7.985
3950604,-129.546,-279.604,964.546,53.158,24.606,-8.734
3950724,-132.335,-278.326,964.535,53.161,24.607,-9.307
3950844,-134.4,-277.396,964.513,53.166,24.608,-9.732
3950965,-135.802,-276.712,964.513,53.166,24.608,-10.022
3951085,-136.946,-276.147,964.513,53.166,24.607,-10.259
3951206,-137.687,-275.787,964.51,53.167,24.608,-10.412
3951326,-138.249,-275.632,964.466,53.177,24.61,-10.527
3951447,-139.131,-278.665,963.262,53.452,24.674,-10.644
3951567,-142.478,-284.36,960.66,54.035,24.808,-11.17
3951688,-148.505,-289.989,957.521,54.719,24.962,-12.155
3951808,-156.239,-293.213,954.849,55.286,25.086,-13.457
3951929,-163.516,-295.57,952.423,55.796,25.118,-14.622
3952049,-169.682,-297.548,949.927,56.345,24.751,-15.411
3952170,-174.124,-297.444,948.462,56.685,24.236,-15.939
3952290,-176.599,-295.657,948.045,56.813,23.66,-16.204
3952410,-179.485,-293.723,947.821,56.881,23.341,-16.65
3952531,-183.039,-291.484,947.759,56.899,23.259,-17.316
3952651,-186.97,-288.967,947.741,56.905,23.234,-18.083
3952772,-191.589,-286.143,947.661,56.92,23.237,-18.992
3952892,-196.427,-286.921,946.174,57.213,23.29,-19.741
3953013,-202.657,-291.353,942.937,57.839,23.405,-20.487
3953133,-210.823,-297.121,938.616,58.643,23.542,-21.407
3953254,-218.436,-302.72,933.977,59.493,23.137,-22.017
3953374,-224.018,-307.655,930.357,59.892,21.5,-22.152
3953495,-227.752,-309.017,928.74,59.841,19.278,-22.122
3953615,-232.457,-308.429,928.365,59.498,17.677,-22.557
3953736,-238.492,-309.325,926.392,59.673,17.033,-23.2
3953856,-246.216,-312.144,922.718,60.275,17.054,-24.034
3953977,-255.362,-316.025,918.069,61.011,17.133,-24.958
3954097,-265.134,-320.365,912.842,61.818,17.217,-25.877
3954218,-274.223,-324.88,907.599,62.608,17.294,-26.649
3954338,-281.801,-328.88,902.836,63.314,17.146,-27.182
3954459,-287.638,-332.081,898.271,63.996,15.951,-27.272
3954579,-291.862,-333.575,894.645,64.527,14.044,-27.135
3954699,-295.208,-333.731,891.99,64.897,12.018,-26.994
3954820,-300.455,-334.08,888.925,65.305,10.696,-27.235
3954940,-306.697,-334.445,885.702,65.722,9.883,-27.746
3955061,-314.11,-334.713,882.183,65.66,7.997,-31.877
3955181,-321.084,-334.589,879.154,65.235,4.713,-39.973
3955302,-326.106,-335.654,876.399,65.209,1.944,-46.66
3955422,-331.167,-337.198,873.329,65.504,0.726,-50.075
3955543,-336.557,-340.009,869.427,65.951,0.507,-51.373
3955663,-343.393,-344.627,863.826,66.593,0.584,-52.244
3955783,-352.983,-350.478,856.098,67.444,0.629,-53.625
3955904,-362.917,-354.571,848.993,68.172,0.664,-55.04
3956024,-369.34,-359.036,845.892,68.066,-0.239,-55.898
3956145,-374.163,-362.385,845.528,67.685,-2.399,-56.372
3956265,-380.21,-361.411,843.384,68.2,-3.897,-56.902
3956386,-388.407,-361.022,838.529,69.068,-4.566,-57.569
3956506,-400.182,-362.779,830.494,70.029,-4.575,-58.528
3956627,-411.488,-364.788,822.337,70.958,-4.518,-59.412
3956747,-419.655,-366.635,815.664,72.08,-5.374,-59.898
3956867,-426.727,-365.237,811.165,73.302,-7.094,-60.407
3956988,-434.383,-361.67,807.445,74.534,-9.066,-61.109
3957108,-445.431,-360.224,800.285,75.894,-10.429,-62.04
3957229,-457.125,-361.266,791.175,76.946,-10.708,-62.225
3957349,-464.766,-364.584,783.536,77.579,-10.48,-61.623
3957470,-468.77,-370.05,777.151,78.187,-10.577,-60.648
3957590,-474.208,-374.978,769.814,79.02,-10.97,-60.207
3957711,-482.811,-377.834,761.111,79.964,-11.149,-60.668
3957831,-490.317,-381.607,752.461,80.943,-11.459,-61.05
3957951,-496.358,-386.791,743.893,81.883,-11.729,-61.206
3958072,-503.645,-391.507,734.314,82.919,-11.978,-61.577
3958192,-510.297,-398.469,723.447,84.337,-12.995,-61.851
3958313,-515.876,-404.685,714.463,85.468,-14.138,-62.084
3958433,-522.209,-408.043,710.232,85.157,-14.598,-62.71
3958554,-527.616,-411.008,708.03,84.664,-15.035,-64.321
3958674,-532.655,-413.084,705.211,84.632,-15.403,-66.287
3958795,-538.325,-414.568,699.462,85.158,-15.386,-67.629
3958915,-545.234,-418.155,689.85,85.89,-15.094,-68.062
3959035,-551.949,-421.82,682.308,85.994,-15.049,-68.265
3959156,-557.829,-424.471,678.495,85.359,-15.307,-68.283
3959276,-562.833,-427.456,673.36,85.194,-15.37,-68.342
3959397,-566.603,-430.33,666.762,85.639,-15.149,-68.305
3959517,-569.667,-432.543,661.359,85.706,-14.884,-67.095
3959638,-570.948,-433.802,658.719,85.462,-14.669,-65.338
3959758,-571.832,-434.67,656.6,85.316,-14.475,-63.896
3959879,-573.013,-435.851,650.046,86.548,-14.03,-63.831
3959999,-573.997,-436.852,643.891,87.823,-13.626,-64.14
3960120,-574.208,-437.302,643.197,87.889,-13.623,-64.143
3960240,-573.112,-438.568,643.36,88.03,-14.041,-64.051
3960360,-572.519,-439.186,643.489,88.155,-14.389,-64.021
3960481,-572.446,-439.173,643.665,88.136,-14.421,-64.013
3960601,-571.807,-439.825,643.841,88.266,-14.804,-63.98
3960722,-569.288,-442.869,644.046,88.441,-15.303,-63.72
3960842,-566.188,-446.773,644.054,88.479,-15.378,-63.336
3960963,-563.261,-450.463,644.023,88.484,-15.373,-62.963
3961083,-560.84,-453.489,644.005,88.487,-15.372,-62.656
3961203,-558.98,-455.81,643.965,88.482,-15.347,-62.418
3961324,-558.213,-456.776,643.935,88.476,-15.323,-62.318
3961444,-558.393,-456.681,643.803,88.425,-15.155,-62.317
3961565,-558.902,-456.195,643.644,88.313,-14.818,-62.338
3961685,-559.25,-456.449,642.824,88.389,-14.739,-62.373
3961806,-559.934,-456.963,641.288,88.547,-14.61,-62.526
3961926,-564.794,-460.272,630.733,89.575,-13.554,-63.86
3962046,-570.399,-463.134,623.579,89.507,-12.358,-65.621
3962167,-571.554,-466.975,629.084,87.485,-13.244,-66.686
3962287,-570.107,-469.793,630.13,87.202,-13.429,-67.211
3962408,-568.014,-471.523,629.249,87.573,-13.268,-67.084
3962528,-565.494,-473.888,627.331,88.168,-13.003,-66.923
3962649,-564.781,-476.124,624.969,88.467,-12.862,-66.816
3962769,-565.964,-476.637,622.042,88.403,-11.852,-66.826
3962890,-569.051,-475.395,618.563,87.984,-9.964,-66.947
3963010,-568.833,-478.649,613.436,88.425,-9.295,-66.824
3963131,-567.198,-482.106,610.665,88.763,-9.146,-66.603
3963251,-565.889,-483.607,610.781,88.741,-9.149,-66.445
3963371,-566.726,-478.855,615.83,87.922,-8.754,-66.151
3963492,-568.814,-471.034,621.747,86.989,-8.526,-63.898
3963612,-567.592,-468.36,620.022,87.587,-7.93,-59.677
3963733,-565.029,-470.516,618.57,88.076,-8.889,-57.075
3963853,-561.515,-475.122,617.156,88.824,-10.586,-57.078
3963974,-559.852,-479.107,613.328,89.925,-10.949,-59.271
3964094,-557.898,-483.878,610.778,90.655,-10.877,-62.187
3964215,-557.827,-490.723,608.32,90.321,-11.084,-63.605
3964335,-557.626,-493.345,606.492,90.174,-10.443,-64.106
3964456,-556.881,-494.329,606.369,89.999,-10.008,-63.997
3964576,-555.352,-496.084,606.322,89.979,-9.951,-63.812
3964697,-554.787,-496.742,606.235,89.959,-9.859,-63.737
3964817,-554.289,-497.298,606.224,89.961,-9.856,-63.679
3964937,-554.309,-497.269,606.239,89.959,-9.857,-63.682
3965058,-554.354,-497.218,606.24,89.959,-9.857,-63.687
3965178,-554.357,-497.213,606.24,89.959,-9.857,-63.687
3965299,-554.373,-497.197,606.24,89.959,-9.857,-63.689
3965419,-554.374,-497.194,606.24,89.959,-9.857,-63.689
3965540,-554.376,-497.192,606.24,89.959,-9.857,-63.689
3965660,-554.376,-497.192,606.24,89.959,-9.857,-63.689
