Time(ms),X(mm),Y(mm),Z(mm),Roll(deg),Pitch(deg),Yaw(deg)
5167446,111.884,450.176,790.196,86.353,-6.699,122.882
5167499,109.067,450.869,790.194,86.353,-6.699,123.24
5167551,106.475,451.488,790.194,86.353,-6.699,123.569
5167603,101.664,452.596,790.194,86.353,-6.699,124.179
5167655,97.954,453.414,790.194,86.353,-6.699,124.648
5167707,91.783,454.703,790.194,86.353,-6.699,125.427
5167760,84.919,456.035,790.194,86.353,-6.699,126.291
5167812,80.055,456.913,790.194,86.353,-6.699,126.901
5167865,72.228,458.216,790.194,86.353,-6.699,127.881
5167917,66.725,459.05,790.194,86.353,-6.699,128.569
5167969,58.154,460.219,790.19,86.354,-6.698,129.637
5168022,49.41,461.239,790.19,86.354,-6.698,130.724
5168075,43.501,461.834,790.19,86.354,-6.698,131.458
5168128,34.401,462.601,790.19,86.354,-6.698,132.586
5168180,28.134,463.027,790.189,86.354,-6.698,133.362
5168233,18.645,463.508,790.187,86.354,-6.698,134.535
5168285,8.932,463.804,790.182,86.354,-6.698,135.735
5168337,2.201,463.891,790.177,86.355,-6.697,136.566
5168389,-8.832,463.813,790.177,86.355,-6.697,137.929
5168441,-15.861,463.625,790.177,86.355,-6.697,138.797
5168494,-26.763,463.124,790.177,86.355,-6.697,140.145
5168547,-37.62,462.369,790.177,86.355,-6.697,141.49
5168599,-44.834,461.725,790.177,86.355,-6.697,142.384
5168651,-55.677,460.543,790.177,86.355,-6.697,143.731
5168703,-66.155,459.155,790.177,86.355,-6.697,145.037
5168755,-72.265,458.233,790.177,86.355,-6.697,145.8
5168807,-82.834,456.441,790.177,86.355,-6.697,147.124
5168859,-89.234,455.233,790.177,86.355,-6.697,147.928
5168911,-98.569,453.306,790.175,86.355,-6.697,149.106
5168963,-104.68,451.934,790.175,86.355,-6.697,149.879
5169015,-113.796,449.725,790.175,86.355,-6.697,151.038
5169068,-122.547,447.42,790.175,86.355,-6.697,152.156
5169121,-127.693,445.978,790.175,86.355,-6.697,152.816
5169174,-136.679,443.321,790.165,86.355,-6.696,153.972
5169227,-144.969,440.695,790.155,86.356,-6.695,155.046
5169279,-150.343,438.932,790.125,86.358,-6.692,155.743
5169331,-158.219,436.162,790.12,86.358,-6.691,156.774
5169383,-163.354,434.275,790.114,86.359,-6.69,157.449
5169436,-170.897,431.365,790.112,86.359,-6.69,158.447
5169489,-178.032,428.489,790.098,86.36,-6.689,159.396
5169542,-182.686,426.526,790.098,86.36,-6.689,160.02
5169594,-189.353,423.616,790.093,86.36,-6.688,160.918
5169646,-193.743,421.626,790.093,86.36,-6.688,161.513
5169698,-199.968,418.717,790.088,86.361,-6.688,162.362
5169750,-205.878,415.851,790.083,86.361,-6.687,163.172
5169802,-209.606,413.992,790.078,86.361,-6.686,163.686
5169854,-214.92,411.272,790.069,86.362,-6.686,164.423
5169907,-218.646,409.303,790.069,86.362,-6.686,164.944
5169959,-223.329,406.767,790.069,86.362,-6.686,165.601
5170012,-227.425,404.491,790.069,86.362,-6.686,166.18
5170065,-229.938,403.068,790.069,86.362,-6.686,166.536
5170117,-233.14,401.224,790.069,86.362,-6.686,166.992
5170169,-236.079,399.502,790.069,86.362,-6.686,167.413
5170223,-237.477,398.672,790.069,86.362,-6.686,167.614
5170275,-238.974,397.777,790.069,86.362,-6.686,167.829
5170327,-239.442,397.495,790.069,86.362,-6.685,167.897
5170379,-239.539,397.436,790.065,86.358,-6.681,167.912
5170431,-239.398,397.536,790.061,86.329,-6.66,167.896
5170483,-238.863,397.915,790.054,86.221,-6.587,167.837
5170535,-236.986,399.174,790.043,85.964,-6.415,167.61
5170587,-235.332,400.287,790.039,85.716,-6.252,167.413
5170639,-232.198,402.388,790.022,85.191,-5.895,167.049
5170691,-228.5,404.843,790.026,84.547,-5.463,166.623
5170744,-225.879,406.543,790.047,84.122,-5.183,166.314
5170796,-221.614,409.3,790.107,83.359,-4.683,165.82
5170848,-218.569,411.224,790.158,82.819,-4.327,165.467
5170900,-213.654,414.239,790.239,81.972,-3.753,164.892
5170954,-208.401,417.077,790.036,81.305,-3.133,164.269
5171006,-204.817,418.824,789.757,80.962,-2.706,163.843
5171058,-199.449,421.179,789.153,80.611,-2.074,163.202
5171110,-196.016,422.577,788.733,80.486,-1.724,162.785
5171162,-191.07,424.443,788.092,80.463,-1.319,162.173
5171215,-186.017,425.981,787.093,80.64,-0.855,161.555
5171268,-182.526,426.92,786.323,80.831,-0.537,161.13
5171320,-177.179,428.31,785.182,81.129,-0.075,160.479
5171372,-173.33,429.371,784.51,81.305,0.198,160.004
5171425,-168.009,430.725,783.526,81.564,0.602,159.355
5171477,-162.853,431.97,782.586,81.813,0.99,158.728
5171530,-159.871,432.671,782.062,81.953,1.207,158.366
5171582,-154.704,434.106,781.507,82.101,1.438,157.719
5171635,-149.799,435.641,781.277,82.162,1.534,157.088
5171687,-146.53,436.72,781.238,82.173,1.55,156.661
5171740,-141.475,438.378,781.229,82.175,1.553,155.999
5171792,-137.976,439.491,781.229,82.175,1.553,155.543
5171844,-132.909,441.05,781.229,82.175,1.553,154.883
5171896,-126.808,442.843,781.229,82.175,1.553,154.092
5171948,-122.745,443.986,781.229,82.175,1.553,153.567
5172001,-116.379,445.697,781.229,82.175,1.553,152.747
5172053,-111.945,446.832,781.229,82.175,1.553,152.178
5172105,-105.183,448.471,781.229,82.175,1.553,151.312
5172158,-98.199,450.052,781.229,82.175,1.553,150.422
5172210,-93.38,451.077,781.229,82.175,1.553,149.809
5172262,-85.934,452.554,781.229,82.175,1.553,148.865
5172315,-80.898,453.482,781.229,82.175,1.553,148.228
5172367,-73.267,454.777,781.229,82.175,1.553,147.265
5172420,-65.525,455.957,781.229,82.175,1.553,146.291
5172473,-60.261,456.682,781.229,82.175,1.553,145.63
5172526,-52.276,457.665,781.229,82.175,1.553,144.629
5172578,-44.255,458.51,781.229,82.175,1.553,143.626
5172630,-38.737,459.009,781.229,82.175,1.553,142.937
5172683,-30.405,459.636,781.229,82.175,1.553,141.898
5172735,-24.895,459.968,781.229,82.175,1.553,141.211
5172787,-16.26,460.354,781.229,82.175,1.553,140.136
5172839,-8.172,460.568,781.229,82.175,1.553,139.13
5172891,-3.342,460.629,781.229,82.175,1.553,138.529
5172944,5.092,460.613,781.229,82.175,1.553,137.48
5172998,10.253,460.527,781.229,82.175,1.553,136.838
5173051,17.898,460.293,781.229,82.175,1.553,135.886
5173104,25.414,459.939,781.229,82.175,1.553,134.95
5173157,30.248,459.647,781.229,82.175,1.553,134.348
5173209,37.206,459.136,781.229,82.175,1.553,133.48
5173262,43.858,458.548,781.229,82.175,1.553,132.65
5173314,48.212,458.12,781.223,82.176,1.554,132.105
5173367,54.507,457.473,781.179,82.179,1.559,131.316
5173420,58.586,456.989,781.164,82.18,1.561,130.805
5173472,64.466,456.237,781.133,82.182,1.564,130.066
5173525,70.098,455.417,781.125,82.182,1.565,129.358
5173579,73.658,454.858,781.123,82.182,1.565,128.91
5173632,78.519,454.046,781.122,82.183,1.565,128.297
5173685,82.851,453.28,781.118,82.183,1.565,127.75
5173737,85.47,452.798,781.115,82.184,1.565,127.419
5173790,88.734,452.178,781.108,82.185,1.566,127.005
5173842,90.524,451.828,781.104,82.186,1.566,126.778
5173894,92.74,451.488,781.023,82.192,1.574,126.496
5173946,94.758,451.914,780.404,82.235,1.642,126.234
5174000,96.163,452.915,779.45,82.301,1.745,126.047
5174053,98.538,455.328,777.288,82.45,1.978,125.731
5174106,100.995,458.42,774.575,82.635,2.269,125.405
5174158,102.622,460.494,772.739,82.76,2.464,125.193
5174211,104.802,463.553,770.036,82.943,2.749,124.912
5174263,105.946,465.35,768.456,83.049,2.915,124.766
5174316,107.16,467.964,766.217,83.198,3.149,124.611
5174369,108.052,469.555,764.816,83.292,3.295,124.5
5174421,108.455,469.998,764.397,83.319,3.338,124.45
5174473,108.585,470.047,764.335,83.324,3.345,124.435
5174525,108.587,469.983,764.384,83.32,3.339,124.434
5174577,108.585,469.925,764.43,83.317,3.335,124.435
5174630,108.585,469.925,764.43,83.317,3.335,124.435
5174683,108.578,469.927,764.43,83.317,3.335,124.435

