Time(ms),X(mm),Y(mm),Z(mm),Roll(deg),Pitch(deg),Yaw(deg)
45028613,-77.483,-247.924,865.118,83.418,-9.997,-37.349
45028667,-77.483,-247.924,865.118,83.418,-9.997,-37.349
45028720,-77.483,-247.924,865.118,83.418,-9.997,-37.349
45028773,-77.483,-247.924,865.118,83.418,-9.997,-37.349
45028826,-77.483,-247.924,865.118,83.418,-9.997,-37.349
45028881,-77.483,-247.924,865.118,83.418,-9.997,-37.349
45028934,-77.483,-247.924,865.118,83.418,-9.997,-37.349
45028988,-77.483,-247.924,865.118,83.418,-9.997,-37.349
45029041,-77.483,-247.924,865.118,83.418,-9.997,-37.349
45029094,-77.483,-247.924,865.118,83.418,-9.997,-37.349
45029148,-77.483,-247.924,865.118,83.418,-9.997,-37.349
45029202,-77.468,-247.912,865.123,83.417,-9.997,-37.35
45029256,-77.385,-247.834,865.16,83.408,-9.995,-37.348
45029309,-76.97,-247.448,865.342,83.361,-9.987,-37.34
45029362,-75.582,-246.157,865.947,83.206,-9.961,-37.313
45029415,-74.517,-245.167,866.408,83.088,-9.941,-37.293
45029468,-72.432,-243.228,867.3,82.855,-9.901,-37.253
45029521,-70.28,-241.226,868.208,82.616,-9.86,-37.211
45029575,-68.955,-239.994,868.761,82.468,-9.835,-37.186
45029628,-66.674,-237.873,869.697,82.216,-9.792,-37.143
45029682,-64.607,-235.951,870.531,81.989,-9.752,-37.105
45029736,-63.351,-234.783,871.032,81.851,-9.728,-37.081
45029789,-61.043,-232.636,871.941,81.597,-9.684,-37.039
45029844,-58.541,-230.31,872.908,81.323,-9.636,-36.993
45029897,-56.903,-228.787,873.431,81.189,-9.613,-36.97
45029952,-53.231,-225.373,874.073,81.111,-9.6,-36.957
45030006,-49.515,-221.919,873.832,81.413,-9.655,-37.009
45030060,-46.968,-219.553,873.173,81.836,-9.731,-37.081
45030113,-43.034,-215.898,871.777,82.656,-9.876,-37.221
45030166,-39.929,-213.018,870.448,83.405,-10.008,-37.351
45030219,-38.286,-211.495,869.841,83.758,-10.069,-37.412
45030272,-36.327,-209.678,869.447,84.024,-10.115,-37.459
45030326,-35.034,-208.478,869.335,84.129,-10.133,-37.477
45030379,-34.375,-207.869,869.376,84.136,-10.135,-37.477
45030434,-33.377,-206.955,869.251,84.234,-10.152,-37.491
45030488,-32.629,-206.281,868.853,84.449,-10.19,-37.525
45030541,-32.406,-206.088,868.508,84.619,-10.219,-37.551
45030594,-32.274,-205.983,867.863,84.926,-10.271,-37.602
45030648,-33.011,-206.706,866.694,85.44,-10.357,-37.686
45030701,-33.744,-207.591,865.765,85.845,-10.462,-37.729
45030755,-34.317,-209.614,864.292,86.473,-10.85,-37.623
45030809,-35.284,-213.193,862.718,87.089,-11.466,-37.363
45030863,-36.472,-216.593,861.652,87.455,-11.896,-37.095
45030917,-37.942,-221.256,860.218,87.925,-12.39,-36.668
45030970,-40.424,-226.796,858.245,88.563,-12.667,-36.221
45031023,-41.601,-229.998,856.832,89.045,-12.743,-35.903
45031078,-42.024,-233.714,854.679,89.853,-12.861,-35.41
45031132,-41.406,-236.21,852.543,90.731,-12.89,-34.932
45031185,-40.522,-237.144,851.413,91.219,-12.809,-34.597
45031238,-39.003,-238.545,850.49,91.576,-12.689,-34.003
45031292,-37.065,-239.655,850.156,91.675,-12.618,-33.365
45031346,-35.125,-240.32,850.023,91.713,-12.62,-32.84
45031399,-32.144,-241.096,849.895,91.749,-12.623,-32.072
45031453,-29.274,-242.084,849.675,91.812,-12.632,-31.294
45031507,-26.713,-243.504,849.276,91.924,-12.647,-30.517
45031560,-25.154,-244.729,848.899,92.03,-12.662,-29.994
45031614,-23.119,-247.097,848.119,92.246,-12.691,-29.205
45031667,-21.877,-248.995,847.471,92.424,-12.716,-28.667
45031721,-19.993,-252.146,846.371,92.722,-12.756,-27.831
45031775,-18.32,-255.924,845.009,93.085,-12.805,-26.981
45031828,-16.754,-260.251,843.407,93.503,-12.86,-26.115
45031882,-15.592,-263.316,842.252,93.799,-12.9,-25.511
45031936,-13.487,-267.794,840.542,94.229,-12.956,-24.571
45031990,-10.934,-271.596,839.087,94.583,-13.001,-23.639
45032043,-9.087,-273.644,838.291,94.776,-13.026,-23.051
45032097,-6.241,-276.235,837.25,95.025,-13.056,-22.216
45032151,-3.834,-278.532,836.278,95.258,-13.048,-21.495
45032204,-2.727,-279.831,835.621,95.421,-12.907,-21.08
45032259,-1.811,-281.486,834.562,95.694,-12.458,-20.528
45032312,-1.263,-282.956,833.461,95.978,-11.939,-20.04
45032366,-0.835,-283.988,832.354,96.245,-11.602,-19.711
45032419,0.272,-285.381,830.5,96.666,-11.319,-19.258
45032474,1.971,-286.965,828.359,97.13,-11.248,-18.785
45032528,3.287,-288.234,826.695,97.477,-11.291,-18.466
45032581,5.287,-290.383,823.984,98.019,-11.361,-17.973
45032635,7.444,-293.3,821.043,98.472,-11.507,-17.418
45032688,8.926,-295.476,819.303,98.642,-11.685,-17.053
45032742,12.163,-298.922,817.042,98.69,-12.08,-16.344
45032795,16.272,-301.012,816.242,98.304,-12.565,-15.57
45032848,19.189,-302.074,816.091,97.927,-12.927,-15.047
45032902,23.662,-302.938,815.966,97.428,-13.458,-14.296
45032957,28.659,-302.058,815.355,97.288,-13.968,-13.616
45033010,32.027,-301.008,814.472,97.432,-14.309,-13.228
45033063,36.988,-299.238,812.845,97.699,-14.759,-12.649
45033117,41.457,-297.463,810.804,98.054,-15.003,-12.071
45033170,43.848,-296.818,808.914,98.4,-15.067,-11.734
45033223,47.133,-295.973,805.796,98.971,-15.134,-11.273
45033278,50.244,-295.685,802.169,99.636,-15.257,-10.861
45033331,52.279,-295.857,799.622,100.103,-15.4,-10.613
45033385,55.418,-296.012,795.912,100.776,-15.663,-10.256
45033439,58.598,-296.364,792.321,101.426,-16.005,-9.927
45033493,60.805,-296.553,790.026,101.837,-16.296,-9.732
45033547,64.295,-296.575,787.124,102.344,-16.849,-9.469
45033600,67.462,-297.224,784.577,102.745,-17.463,-9.262
45033654,69.317,-297.986,783.257,102.815,-17.818,-9.081
45033709,71.624,-299.85,781.836,102.639,-18.328,-8.787
45033763,73.042,-303.144,780.733,102.116,-18.731,-8.446
45033816,73.567,-305.495,780.155,101.682,-18.936,-8.233
45033869,74.175,-309.081,778.985,101.101,-19.219,-7.95
45033922,74.596,-312.361,777.615,100.672,-19.491,-7.753
45033976,74.854,-314.392,776.266,100.572,-19.68,-7.691
45034029,75.313,-316.954,773.511,100.777,-19.952,-7.706
45034082,75.31,-319.307,769.344,101.469,-20.094,-7.896
45034136,75.109,-320.813,766.379,101.995,-20.131,-8.054
45034190,74.707,-323.329,761.51,102.831,-20.199,-8.322
45034243,74.493,-325.928,756.54,103.641,-20.319,-8.579
45034297,74.57,-327.535,753.817,104.03,-20.464,-8.71
45034350,74.904,-330.368,749.668,104.495,-20.757,-8.862
45034403,75.363,-333.35,746.439,104.63,-21.131,-8.934
45034458,75.783,-335.548,744.616,104.565,-21.458,-8.95
45034511,76.523,-339.188,742.815,104.11,-22.095,-8.905
45034564,77.428,-342.491,741.431,103.634,-22.772,-8.85
45034619,78.151,-344.288,740.697,103.393,-23.25,-8.844
45034673,79.266,-346.079,739.528,103.363,-23.991,-8.996
45034726,80.143,-347.161,737.823,103.701,-24.602,-9.285
45034780,80.665,-347.921,736.636,103.929,-24.996,-9.486
45034834,81.173,-348.961,734.806,104.282,-25.448,-9.766
45034888,81.616,-349.894,733.179,104.592,-25.844,-10.017
45034941,81.913,-350.401,732.341,104.76,-26.093,-10.166
45034995,82.335,-350.943,731.485,104.952,-26.424,-10.352
45035049,82.623,-351.354,730.769,105.112,-26.655,-10.495
45035102,82.719,-351.516,730.117,105.284,-26.737,-10.597
45035156,82.771,-351.478,728.396,105.825,-26.773,-10.85
45035211,82.785,-351.37,725.705,106.65,-26.778,-11.222
45035264,82.824,-351.138,722.621,107.654,-26.778,-11.674
45035317,82.866,-350.917,720.731,108.295,-26.775,-11.964
45035370,82.845,-350.894,718.215,109.044,-26.759,-12.299
45035423,82.737,-351.143,717.126,109.262,-26.726,-12.387
45035476,82.27,-351.327,715.998,109.42,-26.481,-12.366
45035530,81.51,-351.204,715.496,109.405,-26.024,-12.186
45035583,80.904,-351.051,715.477,109.255,-25.646,-11.973
45035637,80.406,-348.981,716.682,108.77,-25.098,-11.555
45035690,80.603,-345.208,719.382,107.933,-24.752,-11.076
45035744,81.068,-342.125,721.796,107.211,-24.642,-10.738
45035797,82.303,-335.771,726.925,105.687,-24.579,-10.095
45035850,83.438,-329.656,732.346,103.931,-24.507,-9.377
45035903,83.962,-326.896,735.244,102.881,-24.441,-8.936
45035958,84.486,-323.768,738.048,101.919,-24.32,-8.518
45036012,84.285,-322.739,738.462,101.783,-24.06,-8.397
45036065,83.846,-322.65,738.243,101.812,-23.782,-8.338
45036118,82.982,-322.744,737.676,101.898,-23.273,-8.241
45036171,81.775,-324.461,736.271,102.161,-22.772,-8.211
45036224,81.187,-325.531,735.5,102.307,-22.558,-8.21
45036277,80.44,-327.406,734.283,102.543,-22.355,-8.243
45036330,79.695,-330.428,732.555,102.888,-22.301,-8.354
45036383,79.372,-331.994,731.684,103.063,-22.31,-8.42
45036436,78.977,-333.927,730.606,103.278,-22.323,-8.502
45036489,78.58,-335.849,729.519,103.495,-22.334,-8.585
45036542,78.468,-336.404,729.179,103.57,-22.338,-8.613
45036595,78.359,-336.935,728.872,103.633,-22.341,-8.636
45036648,78.282,-337.307,728.656,103.676,-22.343,-8.653
45036701,78.284,-337.295,728.647,103.683,-22.344,-8.655
45036755,78.334,-337.054,728.747,103.675,-22.343,-8.652
45036808,78.348,-336.988,728.77,103.675,-22.343,-8.652
45036862,78.36,-336.932,728.8,103.67,-22.344,-8.651
45036915,78.361,-336.932,728.8,103.67,-22.344,-8.651
45036968,78.361,-336.931,728.799,103.67,-22.344,-8.651
45037022,78.362,-336.927,728.797,103.672,-22.344,-8.652
45037075,78.364,-336.926,728.796,103.673,-22.346,-8.653
45037128,78.365,-336.926,728.796,103.674,-22.346,-8.653
45037181,78.365,-336.925,728.796,103.674,-22.346,-8.653
45037235,78.366,-336.925,728.796,103.674,-22.346,-8.653
45037289,78.366,-336.924,728.795,103.674,-22.346,-8.653
45037342,78.366,-336.924,728.795,103.674,-22.347,-8.653
45037396,78.366,-336.924,728.795,103.675,-22.347,-8.653
45037449,78.367,-336.923,728.795,103.675,-22.347,-8.653
45037502,78.367,-336.923,728.794,103.675,-22.347,-8.654
45037556,78.367,-336.923,728.794,103.675,-22.347,-8.654
45037610,78.367,-336.923,728.794,103.675,-22.347,-8.654
45037665,78.367,-336.923,728.794,103.675,-22.347,-8.654
45037718,78.367,-336.923,728.794,103.675,-22.347,-8.654
45037772,78.367,-336.923,728.794,103.675,-22.347,-8.654
45037825,78.367,-336.923,728.794,103.675,-22.347,-8.654
45037878,78.367,-336.923,728.794,103.675,-22.347,-8.654
45037931,78.367,-336.923,728.794,103.675,-22.347,-8.654
45037984,78.367,-336.923,728.794,103.675,-22.347,-8.654
45038037,78.367,-336.923,728.794,103.675,-22.347,-8.654
45038092,78.367,-336.923,728.794,103.675,-22.347,-8.654
45038145,78.367,-336.923,728.794,103.675,-22.347,-8.654
45038199,78.367,-336.923,728.794,103.675,-22.347,-8.654
45038252,78.367,-336.923,728.794,103.675,-22.347,-8.654
45038306,78.367,-336.923,728.794,103.675,-22.347,-8.654
45038360,78.367,-336.923,728.794,103.675,-22.347,-8.654
45038413,78.367,-336.923,728.794,103.675,-22.347,-8.654
45038467,78.367,-336.923,728.794,103.675,-22.347,-8.654
45038522,78.367,-336.923,728.794,103.675,-22.347,-8.654
45038575,78.367,-336.923,728.794,103.675,-22.347,-8.654
45038629,78.367,-336.923,728.794,103.675,-22.347,-8.654
45038683,78.367,-336.923,728.794,103.675,-22.347,-8.654
45038737,78.367,-336.923,728.794,103.675,-22.347,-8.654
45038791,78.367,-336.923,728.794,103.675,-22.347,-8.654
45038844,78.367,-336.923,728.794,103.675,-22.347,-8.654
45038898,78.367,-336.923,728.794,103.675,-22.347,-8.654
45038951,78.367,-336.923,728.794,103.675,-22.347,-8.654
45039004,78.367,-336.923,728.794,103.675,-22.347,-8.654
45039058,78.367,-336.923,728.794,103.675,-22.347,-8.654
45039112,78.367,-336.923,728.794,103.675,-22.347,-8.654
45039165,78.367,-336.923,728.794,103.675,-22.347,-8.654
45039218,78.367,-336.923,728.794,103.675,-22.347,-8.654
45039271,78.367,-336.923,728.794,103.675,-22.347,-8.654
45039324,78.367,-336.923,728.794,103.675,-22.347,-8.654
45039377,78.367,-336.923,728.794,103.675,-22.347,-8.654
45039431,78.367,-336.923,728.794,103.675,-22.347,-8.654
45039485,78.367,-336.923,728.794,103.675,-22.347,-8.654
45039538,78.367,-336.923,728.794,103.675,-22.347,-8.654
45039591,78.367,-336.923,728.794,103.675,-22.347,-8.654
45039645,78.367,-336.923,728.794,103.675,-22.347,-8.654
45039698,78.367,-336.923,728.794,103.675,-22.347,-8.654
45039751,78.367,-336.923,728.794,103.675,-22.347,-8.654
45039805,78.367,-336.923,728.794,103.675,-22.347,-8.654
45039859,78.367,-336.923,728.794,103.675,-22.347,-8.654
45039912,78.367,-336.923,728.794,103.675,-22.347,-8.654
45039965,78.367,-336.923,728.794,103.675,-22.347,-8.654
45040018,78.367,-336.923,728.794,103.675,-22.347,-8.654
45040071,78.367,-336.923,728.794,103.675,-22.347,-8.654
45040126,78.367,-336.923,728.794,103.675,-22.347,-8.654
45040180,78.367,-336.923,728.794,103.675,-22.347,-8.654
45040234,78.367,-336.923,728.794,103.675,-22.347,-8.654
45040287,78.367,-336.923,728.794,103.675,-22.347,-8.654
45040340,78.367,-336.923,728.794,103.675,-22.347,-8.654
45040394,78.367,-336.923,728.794,103.675,-22.347,-8.654
45040448,78.367,-336.923,728.794,103.675,-22.347,-8.654
45040503,78.367,-336.923,728.794,103.675,-22.347,-8.654
45040557,78.367,-336.923,728.794,103.675,-22.347,-8.654
45040610,78.367,-336.923,728.794,103.675,-22.347,-8.654
